__time,/joint_states/header/seq,/joint_states/header/stamp,/joint_states/theta1/effort,/joint_states/theta1/position,/joint_states/theta1/velocity,/joint_states/theta2/effort,/joint_states/theta2/position,/joint_states/theta2/velocity,/theta2_controller/command/data
1642806136.723037,9667996.000000,1642806136.723037,0.000000,0.000000,0.000000,0.000000,-0.000767,0.000000,
1642806136.724014,9667997.000000,1642806136.724014,0.000000,0.000000,0.000000,0.002000,-0.000767,0.000000,
1642806136.727980,9668000.000000,1642806136.727980,0.000000,0.000000,0.000000,0.001000,-0.000767,0.000000,
1642806136.732030,9668003.000000,1642806136.732030,0.000000,0.000000,0.000000,0.000000,-0.000767,0.000000,
1642806136.733034,9668004.000000,1642806136.733034,0.000000,0.000000,0.000000,0.000000,-0.000767,0.000000,
1642806136.734024,9668005.000000,1642806136.734024,0.000000,0.000000,0.000000,0.001000,-0.000767,0.000000,
1642806136.735021,9668006.000000,1642806136.735021,0.000000,0.000000,0.000000,0.001000,-0.000767,0.000000,
1642806136.737018,9668007.000000,1642806136.737018,0.000000,0.000000,0.000000,0.000000,-0.000767,0.000000,
1642806136.737977,9668008.000000,1642806136.737977,0.000000,0.000000,0.000000,0.000000,-0.000767,0.000000,
1642806136.738998,9668009.000000,1642806136.738998,0.000000,0.000000,0.000000,0.001000,-0.000767,0.000000,
1642806136.740008,9668010.000000,1642806136.740008,0.000000,0.000000,0.000000,-0.002000,-0.000767,0.000000,
1642806136.742007,9668011.000000,1642806136.742007,0.000000,0.000000,0.000000,-0.002000,-0.000767,0.000000,
1642806136.743023,9668012.000000,1642806136.743023,0.000000,0.000000,0.000000,0.000000,-0.000767,0.000000,
1642806136.744005,9668013.000000,1642806136.744005,0.000000,0.000000,0.000000,-0.001000,-0.000767,0.000000,
1642806136.745037,9668014.000000,1642806136.745037,0.000000,0.000000,0.000000,-0.001000,-0.000767,0.000000,
1642806136.747000,9668015.000000,1642806136.747000,0.000000,0.000000,0.000000,0.000000,-0.000767,0.000000,
1642806136.748001,9668016.000000,1642806136.748001,0.000000,0.000000,0.000000,0.000000,-0.000767,0.000000,
1642806136.749003,9668017.000000,1642806136.749003,0.000000,0.000000,0.000000,0.000000,-0.000767,0.000000,
1642806136.750999,9668018.000000,1642806136.750999,0.000000,0.000000,0.000000,0.000000,-0.000767,0.000000,
1642806136.752019,9668019.000000,1642806136.752019,0.000000,0.000000,0.000000,0.000000,-0.000767,0.000000,
1642806136.753012,9668020.000000,1642806136.753012,0.000000,0.000000,0.000000,0.000000,-0.000767,0.000000,
1642806136.753978,9668021.000000,1642806136.753978,0.000000,0.000000,0.000000,0.000000,-0.000767,0.000000,
1642806136.755005,9668022.000000,1642806136.755005,0.000000,0.000000,0.000000,0.000000,-0.000767,0.000000,
1642806136.757009,9668023.000000,1642806136.757009,0.000000,0.000000,0.000000,-0.001000,-0.000767,0.000000,
1642806136.757975,9668024.000000,1642806136.757975,0.000000,0.000000,0.000000,0.001000,-0.000767,0.000000,
1642806136.759008,9668025.000000,1642806136.759008,0.000000,0.000000,0.000000,0.002000,-0.000767,0.000000,
1642806136.760010,9668026.000000,1642806136.760010,0.000000,0.000000,0.000000,0.002000,-0.000767,0.000000,
1642806136.761982,9668027.000000,1642806136.761982,0.000000,0.000000,0.000000,-0.003000,-0.000767,0.000000,
1642806136.763027,9668028.000000,1642806136.763027,0.000000,0.000000,0.000000,0.001000,-0.000767,0.000000,
1642806136.764017,9668029.000000,1642806136.764017,0.000000,0.000000,0.000000,0.000000,-0.000767,0.000000,
1642806136.765015,9668030.000000,1642806136.765015,0.000000,0.000000,0.000000,0.000000,-0.000767,0.000000,
1642806136.767011,9668031.000000,1642806136.767011,0.000000,0.000000,0.000000,0.000000,-0.000767,0.000000,
1642806136.768014,9668032.000000,1642806136.768014,0.000000,0.000000,0.000000,0.000000,-0.000767,0.000000,
1642806136.769032,9668033.000000,1642806136.769032,0.000000,0.000000,0.000000,0.000000,-0.000767,0.000000,
1642806136.770026,9668034.000000,1642806136.770026,0.000000,0.000000,0.000000,-0.002000,-0.000767,0.000000,
1642806136.772112,9668035.000000,1642806136.772112,0.000000,0.000000,0.000000,0.001000,-0.000767,0.000000,
1642806136.773015,9668036.000000,1642806136.773015,0.000000,0.000000,0.000000,0.001000,-0.000767,0.000000,
1642806136.774084,9668037.000000,1642806136.774084,0.000000,0.000000,0.000000,0.001000,-0.000767,0.000000,
1642806136.775068,9668038.000000,1642806136.775068,0.000000,0.000000,0.000000,0.001000,-0.000767,0.000000,
1642806136.777051,9668039.000000,1642806136.777051,0.000000,0.000000,0.000000,0.001000,-0.000767,0.000000,
1642806136.778134,9668040.000000,1642806136.778134,0.000000,0.000000,0.000000,-0.002000,-0.000767,0.000000,
1642806136.779062,9668041.000000,1642806136.779062,0.000000,0.000000,0.000000,-0.002000,-0.000767,0.000000,
1642806136.780035,9668042.000000,1642806136.780035,0.000000,0.000000,0.000000,0.001000,-0.000767,0.000000,
1642806136.782009,9668043.000000,1642806136.782009,0.000000,0.000000,0.000000,-0.003000,-0.000767,0.000000,
1642806136.783006,9668044.000000,1642806136.783006,0.000000,0.000000,0.000000,0.000000,-0.000767,0.000000,
1642806136.784049,9668045.000000,1642806136.784049,0.000000,0.000000,0.000000,0.000000,-0.000767,0.000000,
1642806136.785007,9668046.000000,1642806136.785007,0.000000,0.000000,0.000000,0.001000,-0.000767,0.000000,
1642806136.787003,9668047.000000,1642806136.787003,0.000000,0.000000,0.000000,-0.001000,-0.000767,0.000000,
1642806136.788011,9668048.000000,1642806136.788011,0.000000,0.000000,0.000000,-0.001000,-0.000767,0.000000,
1642806136.789029,9668049.000000,1642806136.789029,0.000000,0.000000,0.000000,-0.001000,-0.000767,0.000000,
1642806136.790541,9668050.000000,1642806136.790541,0.000000,0.000000,0.000000,-0.001000,-0.000767,0.000000,
1642806136.792026,9668051.000000,1642806136.792026,0.000000,0.000000,0.000000,-0.001000,-0.000767,0.000000,
1642806136.793010,9668052.000000,1642806136.793010,0.000000,0.000000,0.000000,0.001000,-0.000767,0.000000,
1642806136.794058,9668053.000000,1642806136.794058,0.000000,0.000000,0.000000,-0.003000,-0.000767,0.000000,
1642806136.795015,9668054.000000,1642806136.795015,0.000000,0.000000,0.000000,-0.001000,-0.000767,0.000000,
1642806136.797006,9668055.000000,1642806136.797006,0.000000,0.000000,0.000000,-0.001000,-0.000767,0.000000,
1642806136.798029,9668056.000000,1642806136.798029,0.000000,0.000000,0.000000,0.000000,-0.000767,0.000000,
1642806136.799004,9668057.000000,1642806136.799004,0.000000,0.000000,0.000000,-0.001000,-0.000767,0.000000,
1642806136.800199,9668058.000000,1642806136.800199,0.000000,0.000000,0.000000,-0.001000,-0.000767,0.000000,
1642806136.801961,9668059.000000,1642806136.801961,0.000000,0.000000,0.000000,0.000000,-0.000767,0.000000,
1642806136.803007,9668060.000000,1642806136.803007,0.000000,0.000000,0.000000,0.001000,-0.000767,0.000000,
1642806136.804001,9668061.000000,1642806136.804001,0.000000,0.000000,0.000000,0.001000,-0.000767,0.000000,
1642806136.805022,9668062.000000,1642806136.805022,0.000000,0.000000,0.000000,0.001000,-0.000767,0.000000,
1642806136.807512,9668063.000000,1642806136.807512,0.000000,0.000000,0.000000,0.000000,-0.000767,0.000000,
1642806136.809041,9668064.000000,1642806136.809041,0.000000,0.000000,0.000000,0.000000,-0.000767,0.000000,
1642806136.810034,9668065.000000,1642806136.810034,0.000000,0.000000,0.000000,0.000000,-0.000767,0.000000,
1642806136.811024,9668066.000000,1642806136.811024,0.000000,0.000000,0.000000,0.000000,-0.000767,0.000000,
1642806136.812004,9668067.000000,1642806136.812004,0.000000,0.000000,0.000000,0.000000,-0.000767,0.000000,
1642806136.813006,9668068.000000,1642806136.813006,0.000000,0.000000,0.000000,0.000000,-0.000767,0.000000,
1642806136.814039,9668069.000000,1642806136.814039,0.000000,0.000000,0.000000,0.000000,-0.000767,0.000000,
1642806136.815003,9668070.000000,1642806136.815003,0.000000,0.000000,0.000000,-0.003000,-0.000767,0.000000,
1642806136.817096,9668071.000000,1642806136.817096,0.000000,0.000000,0.000000,0.000000,-0.000767,0.000000,
1642806136.818004,9668072.000000,1642806136.818004,0.000000,0.000000,0.000000,0.002000,-0.000767,0.000000,
1642806136.819002,9668073.000000,1642806136.819002,0.000000,0.000000,0.000000,0.004000,-0.000767,0.000000,
1642806136.820031,9668074.000000,1642806136.820031,0.000000,0.000000,0.000000,0.004000,-0.000767,0.000000,
1642806136.821972,9668075.000000,1642806136.821972,0.000000,0.000000,0.000000,0.001000,-0.000767,0.000000,
1642806136.822989,9668076.000000,1642806136.822989,0.000000,0.000000,0.000000,0.000000,-0.000767,0.000000,
1642806136.824012,9668077.000000,1642806136.824012,0.000000,0.000000,0.000000,0.000000,-0.000767,0.000000,
1642806136.825010,9668078.000000,1642806136.825010,0.000000,0.000000,0.000000,0.001000,-0.000767,0.000000,
1642806136.827008,9668079.000000,1642806136.827008,0.000000,0.000000,0.000000,0.001000,-0.000767,0.000000,
1642806136.828004,9668080.000000,1642806136.828004,0.000000,0.000000,0.000000,-0.002000,-0.000767,0.000000,
1642806136.829021,9668081.000000,1642806136.829021,0.000000,0.000000,0.000000,-0.001000,-0.000767,0.000000,
1642806136.831000,9668082.000000,1642806136.831000,0.000000,0.000000,0.000000,-0.001000,-0.000767,0.000000,
1642806136.831997,9668083.000000,1642806136.831997,0.000000,0.000000,0.000000,-0.002000,-0.000767,0.000000,
1642806136.833055,9668084.000000,1642806136.833055,0.000000,0.000000,0.000000,-0.002000,-0.000767,0.000000,
1642806136.833972,9668085.000000,1642806136.833972,0.000000,0.000000,0.000000,0.000000,-0.000767,0.000000,
1642806136.835003,9668086.000000,1642806136.835003,0.000000,0.000000,0.000000,0.000000,-0.000767,0.000000,
1642806136.837001,9668087.000000,1642806136.837001,0.000000,0.000000,0.000000,-0.002000,-0.000767,0.000000,
1642806136.838011,9668088.000000,1642806136.838011,0.000000,0.000000,0.000000,-0.002000,-0.000767,0.000000,
1642806136.838996,9668089.000000,1642806136.838996,0.000000,0.000000,0.000000,-0.001000,-0.000767,0.000000,
1642806136.841005,9668090.000000,1642806136.841005,0.000000,0.000000,0.000000,-0.001000,-0.000767,0.000000,
1642806136.842016,9668091.000000,1642806136.842016,0.000000,0.000000,0.000000,0.001000,-0.000767,0.000000,
1642806136.843010,9668092.000000,1642806136.843010,0.000000,0.000000,-0.000000,0.001000,-0.000767,0.000000,
1642806136.844006,9668093.000000,1642806136.844006,0.000000,0.000000,-0.000000,0.002000,-0.000767,0.000000,
1642806136.845017,9668094.000000,1642806136.845017,0.000000,0.000000,-0.000000,0.001000,-0.000767,0.000000,
1642806136.847012,9668095.000000,1642806136.847012,0.000000,0.000000,-0.000000,0.000000,-0.000767,0.000000,
1642806136.848007,9668096.000000,1642806136.848007,0.000000,0.000000,-0.000000,0.001000,-0.000767,0.000000,
1642806136.849050,9668097.000000,1642806136.849050,0.000000,0.000000,-0.000000,0.001000,-0.000767,0.000000,
1642806136.850016,9668098.000000,1642806136.850016,0.000000,0.000000,-0.000000,0.002000,-0.000767,0.000000,
1642806136.852008,9668099.000000,1642806136.852008,0.000000,0.000000,-0.000000,-0.003000,-0.000767,0.000000,
1642806136.853016,9668100.000000,1642806136.853016,0.000000,0.000000,-0.000000,-0.003000,-0.000767,0.000000,
1642806136.854042,9668101.000000,1642806136.854042,0.000000,0.000000,-0.000000,0.002000,-0.000767,0.000000,
1642806136.856019,9668102.000000,1642806136.856019,0.000000,0.000000,-0.000000,0.000000,-0.000767,0.000000,
1642806136.857029,9668103.000000,1642806136.857029,0.000000,0.000000,-0.000000,0.002000,-0.000767,0.000000,
1642806136.858023,9668104.000000,1642806136.858023,0.000000,0.000000,-0.000000,-0.001000,-0.000767,0.000000,
1642806136.859013,9668105.000000,1642806136.859013,0.000000,0.000000,-0.000000,-0.002000,-0.000767,0.000000,
1642806136.860013,9668106.000000,1642806136.860013,0.000000,0.000000,-0.000000,-0.002000,-0.000767,0.000000,
1642806136.862013,9668107.000000,1642806136.862013,0.000000,0.000000,-0.000000,-0.002000,-0.000767,0.000000,
1642806136.863016,9668108.000000,1642806136.863016,0.000000,0.000000,0.000000,0.002000,-0.000767,0.000000,
1642806136.864014,9668109.000000,1642806136.864014,0.000000,0.000000,0.000000,0.002000,-0.000767,0.000000,
1642806136.865015,9668110.000000,1642806136.865015,0.000000,0.000000,0.000000,0.002000,-0.000767,0.000000,
1642806136.867016,9668111.000000,1642806136.867016,0.000000,0.000000,0.000000,0.002000,-0.000767,0.000000,
1642806136.868008,9668112.000000,1642806136.868008,0.000000,0.000000,0.000000,0.000000,-0.000767,0.000000,
1642806136.869003,9668113.000000,1642806136.869003,0.000000,0.000000,0.000000,0.000000,-0.000767,0.000000,
1642806136.871001,9668114.000000,1642806136.871001,0.000000,0.000000,0.000000,-0.003000,-0.000767,0.000000,
1642806136.872002,9668115.000000,1642806136.872002,0.000000,0.000000,0.000000,-0.003000,-0.000767,0.000000,
1642806136.873027,9668116.000000,1642806136.873027,0.000000,0.000000,0.000000,0.000000,-0.000767,0.000000,
1642806136.874015,9668117.000000,1642806136.874015,0.000000,0.000000,0.000000,0.001000,-0.000767,0.000000,
1642806136.875007,9668118.000000,1642806136.875007,0.000000,0.000000,0.000000,0.002000,-0.000767,0.000000,
1642806136.877013,9668119.000000,1642806136.877013,0.000000,0.000000,0.000000,0.001000,-0.000767,0.000000,
1642806136.878006,9668120.000000,1642806136.878006,0.000000,0.000000,0.000000,0.001000,-0.000767,0.000000,
1642806136.879003,9668121.000000,1642806136.879003,0.000000,0.000000,0.000000,-0.002000,-0.000767,0.000000,
1642806136.880003,9668122.000000,1642806136.880003,0.000000,0.000000,0.000000,-0.001000,-0.000767,0.000000,
1642806136.881962,9668123.000000,1642806136.881962,0.000000,0.000000,0.000000,0.000000,-0.000767,0.000000,
1642806136.883001,9668124.000000,1642806136.883001,0.000000,0.000000,0.000000,-0.001000,-0.000767,0.000000,
1642806136.884011,9668125.000000,1642806136.884011,0.000000,0.000000,0.000000,-0.001000,-0.000767,0.000000,
1642806136.885048,9668126.000000,1642806136.885048,0.000000,0.000000,0.000000,-0.001000,-0.000767,0.000000,
1642806136.887018,9668127.000000,1642806136.887018,0.000000,0.000000,0.000000,0.001000,-0.000767,0.000000,
1642806136.888024,9668128.000000,1642806136.888024,0.000000,0.000000,0.000000,0.001000,-0.000767,0.000000,
1642806136.889065,9668129.000000,1642806136.889065,0.000000,0.000000,0.000000,-0.002000,-0.000767,0.000000,
1642806136.890019,9668130.000000,1642806136.890019,0.000000,0.000000,0.000000,-0.002000,-0.000767,0.000000,
1642806136.892010,9668131.000000,1642806136.892010,0.000000,0.000000,0.000000,0.001000,-0.000767,0.000000,
1642806136.893005,9668132.000000,1642806136.893005,0.000000,0.000000,0.000000,-0.002000,-0.000767,0.000000,
1642806136.894014,9668133.000000,1642806136.894014,0.000000,0.000000,-0.000000,-0.001000,-0.000767,0.000000,
1642806136.895029,9668134.000000,1642806136.895029,0.000000,0.000000,-0.000000,-0.001000,-0.000767,0.000000,
1642806136.897016,9668135.000000,1642806136.897016,0.000000,0.000000,-0.000000,-0.001000,-0.000767,0.000000,
1642806136.898030,9668136.000000,1642806136.898030,0.000000,0.000000,-0.000000,-0.001000,-0.000767,0.000000,
1642806136.899028,9668137.000000,1642806136.899028,0.000000,0.000000,-0.000000,-0.001000,-0.000767,0.000000,
1642806136.900031,9668138.000000,1642806136.900031,0.000000,0.000000,-0.000000,-0.001000,-0.000767,0.000000,
1642806136.902067,9668139.000000,1642806136.902067,0.000000,0.000000,-0.000000,0.000000,-0.000767,0.000000,
1642806136.903023,9668140.000000,1642806136.903023,0.000000,0.000000,-0.000000,0.002000,-0.000767,0.000000,
1642806136.904015,9668141.000000,1642806136.904015,0.000000,0.000000,-0.000000,0.002000,-0.000767,0.000000,
1642806136.908028,9668144.000000,1642806136.908028,0.000000,0.000000,-0.000000,0.001000,-0.000767,0.000000,
1642806136.912008,9668147.000000,1642806136.912008,0.000000,0.000000,-0.000000,0.001000,-0.000767,0.000000,
1642806136.913014,9668148.000000,1642806136.913014,0.000000,0.000000,-0.000000,0.001000,-0.000767,0.000000,
1642806136.914016,9668149.000000,1642806136.914016,0.000000,0.000000,-0.000000,0.002000,-0.000767,0.000000,
1642806136.915011,9668150.000000,1642806136.915011,0.000000,0.000000,-0.000000,0.000000,-0.000767,0.000000,
1642806136.917200,9668151.000000,1642806136.917200,0.000000,0.000000,-0.000000,0.000000,-0.000767,0.000000,
1642806136.918074,9668152.000000,1642806136.918074,0.000000,0.000000,-0.000000,0.001000,-0.000767,0.000000,
1642806136.919173,9668153.000000,1642806136.919173,0.000000,0.000000,-0.000000,0.001000,-0.000767,0.000000,
1642806136.920023,9668154.000000,1642806136.920023,0.000000,0.000000,-0.000000,-0.001000,-0.000767,0.000000,
1642806136.922032,9668155.000000,1642806136.922032,0.000000,0.000000,-0.000000,0.000000,-0.000767,0.000000,
1642806136.923012,9668156.000000,1642806136.923012,0.000000,0.000000,-0.000000,0.001000,-0.000767,0.000000,
1642806136.924012,9668157.000000,1642806136.924012,0.000000,0.000000,-0.000000,0.001000,-0.000767,0.000000,
1642806136.925062,9668158.000000,1642806136.925062,0.000000,0.000000,-0.000000,-0.004000,-0.000767,0.000000,
1642806136.927004,9668159.000000,1642806136.927004,0.000000,0.000000,-0.000000,-0.001000,-0.000767,0.000000,
1642806136.928035,9668160.000000,1642806136.928035,0.000000,0.000000,-0.000000,-0.001000,-0.000767,0.000000,
1642806136.929005,9668161.000000,1642806136.929005,0.000000,0.000000,-0.000000,-0.002000,-0.000767,0.000000,
1642806136.931005,9668162.000000,1642806136.931005,0.000000,0.000000,-0.000000,-0.001000,-0.000767,0.000000,
1642806136.932010,9668163.000000,1642806136.932010,0.000000,0.000000,-0.000000,-0.001000,-0.000767,0.000000,
1642806136.933007,9668164.000000,1642806136.933007,0.000000,0.000000,-0.000000,0.001000,-0.000767,0.000000,
1642806136.934016,9668165.000000,1642806136.934016,0.000000,0.000000,-0.000000,0.001000,-0.000767,0.000000,
1642806136.935025,9668166.000000,1642806136.935025,0.000000,0.000000,-0.000000,0.000000,-0.000767,0.000000,
1642806136.937013,9668167.000000,1642806136.937013,0.000000,0.000000,-0.000000,0.001000,-0.000767,0.000000,
1642806136.938028,9668168.000000,1642806136.938028,0.000000,0.000000,-0.000000,-0.001000,-0.000767,0.000000,
1642806136.939027,9668169.000000,1642806136.939027,0.000000,0.000000,-0.000000,-0.001000,-0.000767,0.000000,
1642806136.940014,9668170.000000,1642806136.940014,0.000000,0.000000,-0.000000,-0.001000,-0.000767,0.000000,
1642806136.941364,9668171.000000,1642806136.941364,0.000000,0.000000,-0.000000,0.001000,-0.000767,0.000000,
1642806136.942968,9668172.000000,1642806136.942968,0.000000,0.000000,-0.000000,0.000000,-0.000767,0.000000,
1642806136.944012,9668173.000000,1642806136.944012,0.000000,0.000000,-0.000000,0.003000,-0.000767,0.000000,
1642806136.945025,9668174.000000,1642806136.945025,0.000000,0.000000,-0.000000,0.003000,-0.000767,0.000000,
1642806136.946543,9668175.000000,1642806136.946543,0.000000,0.000000,-0.000000,0.003000,-0.000767,0.000000,
1642806136.948025,9668176.000000,1642806136.948025,0.000000,0.000000,-0.000000,0.001000,-0.000767,0.000000,
1642806136.949008,9668177.000000,1642806136.949008,0.000000,0.000000,-0.000000,0.000000,-0.000767,0.000000,
1642806136.950010,9668178.000000,1642806136.950010,0.000000,0.000000,-0.000000,0.000000,-0.000767,0.000000,
1642806136.952011,9668179.000000,1642806136.952011,0.000000,0.000000,-0.000000,0.001000,-0.000767,0.000000,
1642806136.953032,9668180.000000,1642806136.953032,0.000000,0.000000,-0.000000,-0.001000,-0.000767,0.000000,
1642806136.954035,9668181.000000,1642806136.954035,0.000000,0.000000,-0.000000,-0.002000,-0.000767,0.000000,
1642806136.955017,9668182.000000,1642806136.955017,0.000000,0.000000,-0.000000,0.000000,-0.000767,0.000000,
1642806136.957013,9668183.000000,1642806136.957013,0.000000,0.000000,-0.000000,0.000000,-0.000767,0.000000,
1642806136.958017,9668184.000000,1642806136.958017,0.000000,0.000000,-0.000000,-0.001000,-0.000767,0.000000,
1642806136.959096,9668185.000000,1642806136.959096,0.000000,0.000000,-0.000000,-0.001000,-0.000767,0.000000,
1642806136.960004,9668186.000000,1642806136.960004,0.000000,0.000000,-0.000000,0.001000,-0.000767,0.000000,
